"Time","Ig:Measured current","Iout:Measured current","V_Isense:Measured voltage","Vout:Measured voltage","Vdrain:Measured voltage"
0.007938084860499562,0.35080198349940661,2.0267840929745131,0.01754009917497033,10.133920464872565,32.873921906974985
0.0079380903602704195,0.32011802088155594,2.0267499774346072,0.016005901044077796,10.133749887173035,33.096041715300721
0.007938100235526201,0.2593310912073733,2.0266905264482742,0.012966554560368666,10.13345263224137,33.430652698179493
0.0079381101107819825,0.19390176642927348,2.0266330949382612,0.0096950883214636744,10.133165474691305,33.694473957645314
0.007938119986037764,0.12487919858363006,2.0265778963273493,0.0062439599291815029,10.132889481636745,33.880937753033379
0.0079381298612935473,0.053312539706816264,2.0265251440383203,0.0026656269853408132,10.132625720191601,33.983476343678873
0.0079381326631910026,0.032709888580038537,2.026510639839036,0.001635494429001927,10.132553199195179,33.996746579228329
0.007938135465088458,0.012063084206798802,2.0264963377261056,0.00060315421033994019,10.132481688630527,34.003108651495765
0.0079381382669859134,-0.0085967421320252146,2.0264822365112241,-0.00042983710660126078,10.132411182556119,34.002600915680617
0.0079381410688833687,-0.029238459155555757,2.0264683350060859,-0.0014619229577777879,10.132341675030428,33.995261726982314
0.0079381438707808241,-0.049830935582915112,2.0264546320223857,-0.0024915467791457556,10.132273160111929,33.981129440600284
0.0079381466726782795,-0.070343040133225565,2.0264411263718189,-0.0035171520066612783,10.132205631859094,33.960242411733972
0.0079381494745757366,-0.090743641525609389,2.0264278168660801,-0.0045371820762804696,10.132139084330399,33.932638995582778
0.007938152276473192,-0.11100160847918888,2.0264147023168633,-0.0055500804239594446,10.132073511584316,33.898357547346173
0.0079381550783706473,-0.13108580971308625,2.0264017815358648,-0.0065542904856543127,10.132008907679323,33.857436422223557
0.0079381578802681027,-0.15096511394642384,2.0263890533347779,-0.0075482556973211924,10.13194526667389,33.809913975414375
0.007938167041059355,-0.21539617982464199,2.0263485980072375,-0.0107698089912321,10.131742990036187,33.614150175080212
0.0079381762018506056,-0.27518239298050207,2.0263102526662826,-0.013759119649025105,10.131551263331412,33.34634564536811
0.0079381853626418579,-0.32981973223063954,2.0262737679930498,-0.016490986611531977,10.131368839965248,33.014256646279584
0.0079381945234331102,-0.37880417639168973,2.0262388946686762,-0.018940208819584487,10.131194473343381,32.625639437816162
0.0079382036842243608,-0.42163170428028823,2.0262053833742995,-0.021081585214014414,10.131026916871496,32.188250279979371
0.0079382128450156131,-0.45779829471307038,2.0261729847910557,-0.022889914735653522,10.130864923955277,31.709845432770734
0.0079382220058068654,-0.48679992650667164,2.026141449600082,-0.024339996325333582,10.130707248000409,31.198181156191779
0.007938231166598116,-0.50813257847772753,2.0261105284825152,-0.025406628923886378,10.130552642412576,30.661013710244031
0.0079382403273893683,-0.52129222944287323,2.0260799721194931,-0.026064611472143662,10.130399860597466,30.106099354929015
0.0079382494881806206,-0.52577485821874448,2.0260495311921516,-0.026288742910937225,10.130247655960758,29.541194350248254
0.0079382576939364541,-0.52294221198815061,2.0260222816704694,-0.026147110599407532,10.130111408352347,29.029160390916822
0.0079382658996922876,-0.51259670771194954,2.0259945035063884,-0.025629835385597478,10.129972517531941,28.528403491454199
0.0079382741054481211,-0.49522351392986025,2.0259660381946913,-0.024761175696493012,10.129830190973456,28.043816096114647
0.0079382823112039546,-0.47130779918160176,2.0259367272301607,-0.023565389959080089,10.129683636150803,27.580290649152431
0.0079382905169597898,-0.44133473200689288,2.0259064121075787,-0.022066736600344646,10.129532060537894,27.142719594821813
0.0079382987227156233,-0.40578948094545253,2.0258749343217279,-0.020289474047272629,10.129374671608639,26.735995377377055
0.0079383069284714568,-0.36515721453699979,2.025842135367391,-0.018257860726849991,10.129210676836955,26.365010441072421
0.0079383151342272903,-0.31992310132125346,2.0258078567393505,-0.015996155066062674,10.129039283696752,26.034657230162178
0.0079383233399831239,-0.27057230983793262,2.0257719399323886,-0.013528615491896632,10.128859699661943,25.749828188900587
0.0079383315457389574,-0.21759000862675615,2.0257342264412879,-0.010879500431337808,10.128671132206438,25.515415761541909
0.0079383412864499903,-0.15015925081705694,2.0256873935982931,-0.0075079625408528477,10.128436967991465,25.294295358729073
0.0079383510271610214,-0.080545976181378154,2.0256373683413131,-0.0040272988090689077,10.128186841706565,25.164566346751638
0.0079383607678720543,-0.0098922093050720084,2.0255842812692322,-0.00049461046525360044,10.127921406346161,25.12212434621307
0.0079383705085830855,0.060660025226509096,2.0255282629809348,0.0030330012613254548,10.127641314904674,25.162864977716822
0.0079383802492941184,0.12996870282801293,2.0254694440753052,0.0064984351414006467,10.127347220376526,25.28268386186636
0.0079383899900051496,0.19689179891408715,2.0254079551512292,0.0098445899457043577,10.127039775756145,25.477476619265147
0.0079383997307161825,0.26028728889937935,2.0253439268075897,0.013014364444968968,10.126719634037949,25.743138870516642
0.0079384014563537043,0.27106401366106708,2.0253323288175595,0.013553200683053355,10.126661644087797,25.797281909174231
0.0079384014563539298,0.27106401505956496,2.025332328816039,0.013553200752978249,10.126661644080194,25.79728191638581
0.0079384110167285225,0.26664792080004007,2.0252677867253319,0.013332396040002005,10.126338933626659,26.099866681986665
0.0079384205771031134,0.26206419532506553,2.0252032466914138,0.013103209766253277,10.126016233457069,26.397339772150193
0.0079384301374777061,0.25731615124063123,2.0251387087142194,0.012865807562031562,10.125693543571096,26.689531238437738
0.0079384396978522988,0.25240710115272724,2.0250741727936825,0.012620355057636362,10.125370863968412,26.976271132410638
0.0079384492582268897,0.24734035766734358,2.0250096389297383,0.012367017883367179,10.125048194648691,27.257389505630243
0.0079384588186014824,0.24211923339047017,2.024945107122321,0.01210596166952351,10.124725535611605,27.532716409657887
0.0079384683789760751,0.23674704092809704,2.024880577371365,0.011837352046404853,10.124402886856824,27.802081896054915
0.007938477939350666,0.23122709288621415,2.0248160496768044,0.011561354644310708,10.124080248384022,28.06531601638267
0.0079384874997252587,0.22556270187081151,2.0247515240385745,0.011278135093540576,10.123757620192873,28.322248822202493
0.0079384970600998514,0.21975718048787912,2.0246870004566095,0.010987859024393956,10.123435002283047,28.572710365075725
0.0079385360828582215,0.19470132214304098,2.0244236546791345,0.0097350661071520499,10.122118273395673,29.540092594960193
0.0079385546313077131,0.18204019537479971,2.0242984921487674,0.009102009768739986,10.121492460743838,29.95282379836701
0.0079385546313079387,0.18204019521814252,2.024298492147246,0.0091020097609071267,10.12149246073623,29.95282380319922
0.0079385674293644421,0.17048899925349725,2.0242117100090553,0.0085244499626748634,10.121058550045277,30.23319952704783
0.0079385802274209438,0.15301532801535034,2.0241256495134361,0.0076507664007675171,10.120628247567181,30.477612697144085
0.0079385930254774473,0.13056552977101554,2.0240403685144641,0.0065282764885507775,10.120201842572321,30.684315686242723
0.007938605823533949,0.10408595278780683,2.0239559248662164,0.005204297639390342,10.119779624331082,30.851560867098485
0.0079386186215904524,0.07452294533303791,2.0238723764227688,0.0037261472666518958,10.119361882113845,30.977600612466112
0.0079386314196469559,0.042822855674022664,2.023789781038198,0.0021411427837011335,10.11894890519099,31.060687295100344
0.0079386442177034576,0.0099320320780749288,2.0237081965665809,0.00049660160390374651,10.118540982832904,31.099073287755925
0.007938657015759961,-0.023203177187491542,2.0236276808619933,-0.001160158859374577,10.118138404309965,31.091010963187593
0.0079386698138164628,-0.05563642385536284,2.0235482917785115,-0.002781821192768142,10.117741458892556,31.034752694150082
0.0079386826118729662,-0.086421359658225172,2.023470087170212,-0.0043210679829112589,10.11735043585106,30.928550853398146
0.0079386868780932044,-0.096161587307579524,2.0234442729013531,-0.0048080793653789769,10.117221364506765,30.882307428488801
0.0079386911443134426,-0.10554235028318962,2.0234185699713092,-0.0052771175141594811,10.117092849856546,30.831151799021669
0.0079386954105336808,-0.11453770223553295,2.0233929704529094,-0.005726885111776648,10.116964852264546,30.775331083241923
0.007938699676753919,-0.123121696815087,2.0233674664189816,-0.0061560848407543507,10.116837332094907,30.715092399394756
0.0079387039429741572,-0.13126838767232926,2.0233420499423538,-0.0065634193836164633,10.116710249711769,30.65068286572534
0.0079387082091943954,-0.13895182845773721,2.0233167130958551,-0.0069475914228868604,10.116583565479276,30.582349600478871
0.0079387124754146336,-0.14614607282178838,2.0232914479523134,-0.0073073036410894188,10.116457239761568,30.510339721900518
0.0079387167416348717,-0.15282517441496021,2.0232662465845572,-0.0076412587207480114,10.116331232922786,30.434900348235466
0.0079387210078551099,-0.15896318688773023,2.0232411010654143,-0.0079481593443865121,10.116205505327072,30.356278597728902
0.0079387252740753481,-0.1645341638905759,2.0232160034677138,-0.0082267081945287951,10.116080017338568,30.274721588626008
0.007938735841327876,-0.17650830510994453,2.0231540891324484,-0.0088254152554972272,10.115770445662243,30.058642881128311
0.0079387464085804021,-0.18389884716755239,2.0230921863737339,-0.0091949423583776203,10.11546093186867,29.833368029057038
0.00793875697583293,-0.18692404478896923,2.0230301550582324,-0.0093462022394484624,10.115150775291161,29.603232914229551
0.0079387675430854579,-0.18580215269976502,2.0229678550526056,-0.0092901076349882518,10.114839275263028,29.372573418463208
0.0079387781103379858,-0.18075142562550955,2.0229051462235166,-0.0090375712812754781,10.114525731117583,29.145725423575374
0.0079387886775905119,-0.17199011829177263,2.022841888437628,-0.0085995059145886326,10.114209442188139,28.927024811383411
0.0079387992448430398,-0.15973648542412416,2.0227779415616012,-0.0079868242712062085,10.113889707808006,28.720807463704677
0.0079388098120955677,-0.14420878174813395,2.0227131654621,-0.0072104390874066981,10.113565827310499,28.53140926235654
0.0079388203793480938,-0.12562526198937185,2.0226474200057853,-0.0062812630994685927,10.113237100028927,28.363166089156355
0.0079388309466006217,-0.10420418087340774,2.0225805650593212,-0.0052102090436703871,10.112902825296604,28.220413825921479
0.0079388434082359963,-0.07509172946924586,2.0225005108729612,-0.0037545864734622931,10.112502554364806,28.078278783659385
0.0079388558698713693,-0.044302707379046569,2.022418271308688,-0.0022151353689523283,10.11209135654344,27.991409153932992
0.0079388611928436596,-0.030835192260753347,2.0223825032715319,-0.0015417596130376675,10.111912516357659,27.970313919488259
0.0079388611928438851,-0.030835191687632713,2.0223825032700087,-0.0015417595843816357,10.111912516350044,27.970313918791341
0.0079388726881314212,-0.03748227459148476,2.022305011860055,-0.001874113729574238,10.111525059300275,27.923806696675147
0.0079388841834189556,-0.044094704244203385,2.0222275234193314,-0.0022047352122101693,10.111137617096656,27.868249277781867
0.0079388956787064917,-0.050666721827451425,2.0221500379477235,-0.0025333360913725716,10.110750189738617,27.803727856465667
0.0079389071739940278,-0.057192568522891667,2.022072555445118,-0.0028596284261445835,10.110362777225589,27.730328627080695
0.0079389186692815621,-0.063666485512186954,2.0219950759114012,-0.0031833242756093478,10.109975379557005,27.648137783981117
0.0079389301645690982,-0.070082713977000125,2.0219175993464584,-0.0035041356988500063,10.109587996732293,27.557241521521085
0.0079389416598566343,-0.076435495098993972,2.021840125750177,-0.0038217747549496987,10.109200628750886,27.457726034054762
0.0079389531551441687,-0.08271907005983134,2.0217626551224437,-0.0041359535029915672,10.108813275612217,27.349677515936303
0.0079389646504317048,-0.088927680041175017,2.021685187463143,-0.004446384002058751,10.108425937315713,27.233182161519867
0.0079389761457192409,-0.09505556622468786,2.0216077227721621,-0.0047527783112343933,10.10803861386081,27.10832616515961
0.0079390164892992349,-0.11609012408655102,2.0213358780749622,-0.0058045062043275515,10.10667939037481,26.610835569566017
0.0079390568328792273,-0.13561050200281521,2.0210640699325912,-0.0067805251001407611,10.105320349662955,26.011519407177971
0.0079390971764592214,-0.1534959880805655,2.0207922983401381,-0.0076747994040282756,10.103961491700691,25.320446986784013
0.0079391375200392154,-0.16962587042688698,2.0205205632926897,-0.0084812935213443488,10.102602816463447,24.547687617172699
0.0079391778636192078,-0.18387943714886479,2.0202488647853332,-0.0091939718574432401,10.101244323926666,23.703310607132583
0.0079392182071992019,-0.19613597635358404,2.0199772028131568,-0.0098067988176792024,10.099886014065783,22.797385265452206
0.0079392585507791959,-0.20627477614812975,2.0197055773712473,-0.010313738807406488,10.098527886856237,21.839980900920125
0.0079392988943591883,-0.21417512463958713,2.0194339884546926,-0.010708756231979357,10.097169942273462,20.84116682232489
0.0079393392379391824,-0.21971630993504118,2.0191624360585796,-0.010985815496752059,10.095812180292898,19.81101233845505
0.0079393795815191764,-0.22277762014157704,2.0188909201779963,-0.011138881007078853,10.094454600889982,18.759586758099161
0.0079394199272187806,-0.22353545954391993,2.01861942654575,-0.011176772977195997,10.093097132728749,17.691478870147876
0.0079394602729183847,-0.22157994475791631,2.0183479694230431,-0.011078997237895816,10.091739847115216,16.632555123815898
0.0079395006186179888,-0.21704610111567935,2.0180765488049701,-0.010852305055783967,10.090382744024851,15.59249471786239
0.0079395409643175929,-0.21006895394932229,2.0178051646866231,-0.010503447697466115,10.089025823433115,14.580976851046508
0.0079395813100171971,-0.20078352859095838,2.0175338170630961,-0.01003917642954792,10.087669085315479,13.607680722127416
0.0079396216557168012,-0.1893248503727008,2.017262505929482,-0.0094662425186350409,10.08631252964741,12.682285529864275
0.0079396620014164053,-0.17582794462666274,2.016991231280874,-0.0087913972313331378,10.08495615640437,11.814470473016245
0.0079397023471160094,-0.16042783668495741,2.0167199931123658,-0.0080213918342478714,10.083599965561829,11.013914750342487
0.0079397426928156135,-0.14325955187969808,2.0164487914190508,-0.0071629775939849039,10.082243957095253,10.290297560602164
0.0079397830385152177,-0.1244581155429979,2.0161776261960216,-0.0062229057771498956,10.080888130980108,9.6532981025544373
0.0079398137041995862,-0.10920282423668737,2.0159715451731759,-0.0054601412118343686,10.07985772586588,9.2277289313962267
0.0079398443698839548,-0.093233431295887598,2.0157654852146369,-0.0046616715647943797,10.078827426073184,8.8625118949182422
0.0079398750355683233,-0.076662350360081413,2.0155594463182527,-0.0038331175180040707,10.077797231591262,8.5581905137099792
0.0079399057012526919,-0.059601995068751842,2.0153534284818706,-0.0029800997534375922,10.076767142409352,8.315308308360942
0.0079399363669370605,-0.042164779061381732,2.0151474317033391,-0.0021082389530690869,10.075737158516695,8.1344087994606298
0.007939967032621429,-0.024463115977454,2.0149414559805057,-0.0012231557988727001,10.074707279902528,8.0160355075985379
0.0079399976983057976,-0.0066094194564515624,2.0147355013112187,-0.00033047097282257816,10.073677506556093,7.9607319533641681
0.0079400283639901661,0.011283896862142699,2.0145295676933261,0.00056419484310713496,10.072647838466629,7.9690416573470202
0.0079400590296745347,0.029104419338845833,2.014323655124675,0.0014552209669422918,10.071618275623376,8.0415081401365924
0.0079400896953589033,0.046739734334174943,2.0141177636031147,0.0023369867167087471,10.070588818015572,8.1786749223223847
0.0079401231071671661,0.065700523914552555,2.0138934583723014,0.003285026195727628,10.069467291861507,8.3967540091828194
0.0079401565189754289,0.084079647541544053,2.0136691781215728,0.004203982377077203,10.068345890607864,8.6923765068778636
0.0079401899307836917,0.10176937911408634,2.0134449228481484,0.0050884689557043174,10.067224614240741,9.0611281798044132
0.0079402233425919545,0.11866199253111626,2.0132206925492468,0.0059330996265558131,10.066103462746234,9.4985947923593592
0.0079402567544002173,0.13464976169157064,2.0129964872220887,0.0067324880845785326,10.064982436110443,10.000362108939592
0.0079402901662084802,0.14962496049438634,2.0127723068638925,0.0074812480247193171,10.063861534319463,10.562015893942007
0.007940323578016743,0.16347986283850025,2.0125481514718784,0.0081739931419250126,10.062740757359391,11.179141911763493
0.0079403569898250058,0.17610674262284917,2.0123240210432654,0.0088053371311424596,10.061620105216326,11.847325926800945
0.0079403904016332686,0.18739787374636996,2.012099915575273,0.0093698936873184979,10.060499577876364,12.562153703451253
0.0079404238134415314,0.19724553010799947,2.0118758350651205,0.009862276505399975,10.059379175325601,13.319211006111306
0.007940466814032163,0.20800779412508882,2.0115874829005249,0.010400389706254442,10.057937414502625,14.35029183193754
0.0079405098146227947,0.21581208662439819,2.0112991720640045,0.01079060433121991,10.056495860320023,15.425371471681606
0.007940552815213428,0.2207170616334552,2.0110109025496392,0.011035853081672761,10.055054512748196,16.530956540825631
0.0079405958158040597,0.22278137317978747,2.0107226743515096,0.011139068658989374,10.053613371757548,17.653553654851748
0.0079406388163946913,0.22206367529092255,2.0104344874636957,0.011103183764546129,10.052172437318479,18.779669429242098
0.0079406818169853229,0.21862262199438812,2.0101463418802785,0.010931131099719407,10.050731709401392,19.895810479478808
0.0079407248175759546,0.21251686731771174,2.009858237595338,0.010625843365885589,10.04929118797669,20.988483421044016
0.0079407678181665862,0.20380506528842102,2.0095701746029553,0.010190253264421051,10.047850873014776,22.044194869419851
0.0079408108187572195,0.1925458699340436,2.0092821528972102,0.0096272934967021814,10.046410764486051,23.049451440088447
0.0079408538193478512,0.17879793528210702,2.0089941724721836,0.0089398967641053512,10.044970862360918,23.990759748531939
0.0079408938363591496,0.1639725425557379,2.0087262105359849,0.0081986271277868956,10.043631052679924,24.809890148840282
0.0079409338533704479,0.14726720616771027,2.0084582843408483,0.0073633603083855144,10.042291421704242,25.543853285527913
0.0079409738703817463,0.12891817718127885,2.00819039388201,0.0064459088590639426,10.040951969410051,26.189367753315761
0.0079410138873930464,0.10916170665969829,2.007922539154706,0.0054580853329849154,10.039612695773529,26.743152146924768
0.0079410539044043448,0.088234045666223226,2.007654720154171,0.0044117022833111618,10.038273600770856,27.201925061075858
0.0079410939214156432,0.066371445264108334,2.0073869368756418,0.0033185722632054168,10.03693468437821,27.562405090489978
0.0079411339384269416,0.043810156516608245,2.0071191893143534,0.0021905078258304123,10.035595946571767,27.821310829888052
0.00794117395543824,0.020786430486977599,2.0068514774655415,0.00103932152434888,10.034257387327708,27.975360873991018
0.0079412139724495383,-0.0024634817615289129,2.0065838013244419,-0.00012317408807644564,10.03291900662221,28.021273817519806
0.0079412539894608367,-0.025703329165656652,2.0063161608862905,-0.0012851664582828326,10.031580804431453,27.955768255195355
0.0079412881130018938,-0.04541042765576303,2.0060879651583203,-0.0022705213827881516,10.030439825791602,27.816738237182658
