"Time","Ig:Measured current","Iout:Measured current","V_Isense:Measured voltage","Vout:Measured voltage","Vdrain:Measured voltage"
0.0078830448174060652,3.196608709381231,1.9788490850370861,0.15982236626531346,9.8942454251854297,0.17411046609910982
0.0078837114529508538,3.8866743623361559,1.9744560523745225,0.19432566196466874,9.8722802618726124,0.21169835647909155
0.0078844708043191089,4.6708271386798614,1.9694646853275555,0.23353331805237873,9.8473234266377769,0.25441117707005084
0.0078852301556873623,5.4530970442886044,1.9644859361824893,0.27264683240630949,9.8224296809124461,0.29702143965442618
0.0078859895070556157,6.2334885732859604,1.9595197732419487,0.31166642913191378,9.7975988662097429,0.33952938837326185
0.0078867488584238692,7.0120062197955058,1.954566164808557,0.35059233233464437,9.772830824042785,0.3819352673676023
0.0078867909587137831,7.055114398626154,1.9542918913744545,0.35274774243921958,9.7714594568722717,0.38428337113802891
0.0078867909587140086,7.0551143988570511,1.9542918913729854,0.35274774245076446,9.7714594568649265,0.38428337115060585
0.0078867909587142342,7.0551143990814182,1.9542918913715164,0.35274773845351826,9.7714594568575812,0.38428503081081766
0.0078867912085201688,7.0553567665495764,1.9542902640598183,0.34833021463998481,9.7714513202990911,2.219413011871664
0.0078867914583261034,7.0555727041943168,1.9542886367494756,0.34398519172333808,9.7714431837473779,4.0316772995098962
0.007886791708132038,7.0557625185737418,1.9542870094404876,0.33971155042496826,9.7714350472024378,5.8214278902766399
0.0078867919579379726,7.0559265162459539,1.9542853821328547,0.33550817146626633,9.7714269106642728,7.5890147807230122
0.0078867922077439073,7.0560650037690538,1.954283754826577,0.33137393556862249,9.7714187741328846,9.3347879674001319
0.0078867924575498419,7.0561782877011456,1.954282127521654,0.32730772345342751,9.7714106376082697,11.059097446859125
0.0078867927073557765,7.0562666746003302,1.9542805002180863,0.32330841584207182,9.7714025010904315,12.762293215651106
0.0078867929571617128,7.0563304710247099,1.9542788729158733,0.31937489345594605,9.7713943645793666,14.444725270327204
0.0078867932069676475,7.0563699835323872,1.9542772456150157,0.31550603701644075,9.7713862280750785,16.106743607438531
0.0078867934567735821,7.0563855186814628,1.9542756183155132,0.31170072724494635,9.7713780915775654,17.748698223536216
0.007886794355958085,7.0562418513503866,1.9542697608097901,0.29853364506980762,9.7713488040489498,23.491553715457375
0.0078867952551425879,7.0558096070625407,1.954263903321624,0.2861091427569683,9.7713195166081199,28.999712521856139
0.0078867953452711175,7.0557507345539721,1.9542633162052714,0.28490340845299056,9.7713165810263565,29.539288875412566
0.007886795345271343,7.0557507344031638,1.9542633162038023,0.28490340544494908,9.7713165810190112,29.539290222701389
0.0078867964862734154,7.0484746556443314,1.9542558686193576,0.26996101939323758,9.7712793430967881,36.170058000561312
0.0078867976272754877,7.0292027399447941,1.9542484987057405,0.25552413422126963,9.7712424935287014,42.452544562811624
0.00788679876827756,6.9984943392402217,1.9542412463276677,0.24157836554894921,9.7712062316383381,48.397128686696284
0.0078867999092796324,6.9569088054662833,1.954234151349856,0.22810932899617994,9.7711707567492798,54.014189149459192
0.007886801050281703,6.9050054905586498,1.9542272536370235,0.21510264018286598,9.771136268185117,59.314104728344269
0.0078868021912837753,6.84334374645299,1.9542205930538861,0.20254391472891117,9.7711029652694297,64.307254200595438
0.0078868033322858477,6.7724829250849741,1.9542142094651618,0.19041876825421927,9.7710710473258082,69.004016343456655
0.00788680447328792,6.6929823783902718,1.9542081427355669,0.17871281637869435,9.7710407136778343,73.414769934171801
0.0078868056142899923,6.6054014583045539,1.9542024327298195,0.16741167472224036,9.7710121636490967,77.549893749984818
0.0078868067552920647,6.5102995167634887,1.9541971193126355,0.15650095890476104,9.7709855965631771,81.419766568139636
0.0078868082780407887,6.3720856700062338,1.9541906510308096,0.14253753698026439,9.7709532551540477,86.180639927961607
0.0078868098007895144,6.2228382290434308,1.9541850565920247,0.1292119008667659,9.770925282960123,90.511989289588527
0.0078868113235382384,6.0634235975043769,1.9541803747499848,0.11650356894663219,9.7709018737499242,94.430921180131747
0.0078868128462869641,5.8947081790183677,1.954176644258395,0.10439205960222953,9.7708832212919745,97.954542126702677
0.0078868143690356881,5.7175583772147025,1.9541739038709591,0.09285689121592472,9.770869519354795,101.09995865641264
0.0078868158917844138,5.5328405957226767,1.9541721923413822,0.081877582170084062,9.7708609617069104,103.88427729637301
0.0078868174145331378,5.3414212381715895,1.9541715484233686,0.071433650847074107,9.7708577421168421,106.32460457369514
0.0078868189372818635,5.1441667081907356,1.9541720108706226,0.061504615629261336,9.770860054353113,108.43804701549044
0.0078868204600305875,4.9419434094094141,1.954173618436849,0.052069994899012303,9.7708680921842443,110.24171114887022
0.0078868219827793132,4.7356177454569215,1.9541764098757519,0.043109307038693451,9.7708820493787591,111.75270350094586
0.0078868236341438965,4.5076680411586008,1.9541807629736629,0.033914042649856674,9.7709038148683138,113.07233449801616
0.0078868252855084798,4.2769235344913632,1.9541865855857941,0.02523121657228182,9.7709329279289694,114.08783635804224
0.0078868269368730648,4.0440110564030984,1.9541938755756232,0.017044498505829814,9.7709693778781155,114.81413783618163
0.0078868285882376481,3.8095574378416908,1.954202630806628,0.0093375581503611083,9.77101315403314,115.26616768759185
0.0078868302396022313,3.574189509755028,1.9542128491422863,0.0020940652057365242,9.7710642457114307,115.45885466743039
0.0078868318909668146,3.3385341030909963,1.9542245284460753,-0.0047023106281832566,9.7711226422303756,115.40712753085478
0.0078868335423313979,3.1032180487974816,1.9542376665814729,-0.011067899651537566,9.7711883329073643,115.12591503302257
0.0078868351936959812,2.868868177822371,1.9542522614119571,-0.017019032164465653,9.7712613070597847,114.63014592909124
0.0078868368450605662,2.636111321113551,1.9542683108010053,-0.022572038467106856,9.7713415540050264,113.93474897421835
0.0078868384964251494,2.4055743096189079,1.9542858126120952,-0.027743248859600569,9.7714290630604754,113.05465292356139
0.0078868404494217871,2.135951230215658,1.9543083350434038,-0.033379811488031513,9.7715416752170192,111.78557784358313
0.007886842402418423,1.8712758314322895,1.9543328599847589,-0.038528977732134928,9.7716642999237937,110.3031908997484
0.0078868443554150607,1.6119768917596968,1.9543593348213926,-0.043209572843922059,9.7717966741069624,108.62360888088413
0.0078868463084116984,1.3584831896887752,1.954387706938536,-0.047440422075404623,9.7719385346926799,106.76294857581738
0.0078868482614083343,1.1112235037104186,1.9544179237214214,-0.051240350678593949,9.7720896186071062,104.7373267733751
0.007886850214404972,0.87062661231552152,1.9544499325552804,-0.054628183905501559,9.7722496627764013,102.56286026238429
0.0078868521674016097,0.63712129399497819,1.9544836808253443,-0.057622747008138922,9.7724184041267215,100.25566583167192
0.0078868541203982456,0.41113632723968313,1.9545191159168454,-0.060242865238517504,9.7725955795842268,97.831860270064993
0.0078868560733948833,0.19310049054053113,1.9545561852150151,-0.062507363848648842,9.7727809260750753,95.30756036639049
0.007886858026391521,-0.01655743761158357,1.9545948361050851,-0.064435068090544306,9.7729741805254253,92.698882909475387
0.0078868603814973431,-0.25845674274526864,1.9546434639987074,-0.066327561730832027,9.7732173199935364,89.44825002936588
0.007886862736603167,-0.48697737525974127,1.9546941794512369,-0.067789772262030729,9.7734708972561837,86.126556538090341
0.0078868650917089892,-0.70214082395479149,1.9547468637397518,-0.068845742978997579,9.7737343186987591,82.749119559715723
0.0078868674468148131,-0.90396857763020921,1.9548013981413295,-0.069519517176589538,9.7740069907066474,79.33125621830888
0.0078868698019206353,-1.0924821250857844,1.9548576639330482,-0.069835138149663759,9.7742883196652404,75.888283637936809
0.0078868721570264574,-1.2677029551213068,1.9549155423919851,-0.069816649193077285,9.7745777119599246,72.43551894266642
0.0078868745121322813,-1.4296525565365668,1.9549749147952178,-0.069488093601687173,9.7748745739760885,68.98827925656461
0.0078868768672381035,-1.5783524181313542,1.9550356624198244,-0.068873514670350508,9.775178312099122,65.561881703698333
0.0078868792223439274,-1.7138240287054589,1.9550976665428825,-0.06799695569392436,9.7754883327144118,62.171643408134521
0.0078868815774497496,-1.836088877058671,1.9551608084414696,-0.066882459967265787,9.7758040422073478,58.832881493940064
0.0078868844148398867,-1.9664878455732842,1.9552383096989605,-0.065238147318484346,9.7761915484948023,54.879033157166283
0.007886887252230022,-2.0782631145723793,1.9553170161249627,-0.063328172638068683,9.7765850806248125,51.046960669646282
0.0078868900896201591,-2.1721680798548197,1.9553967676076256,-0.061179567760919706,9.7769838380381273,47.344416147702958
0.0078868929270102962,-2.2489561372194693,1.9554774040351006,-0.058819364521938505,9.7773870201755031,43.779151707659196
0.0078868957644004315,-2.309380682465191,1.955558765295538,-0.05627459475602592,9.7777938264776889,40.358919465837893
0.0078868986017905686,-2.3541951113908475,1.9556406912770883,-0.053572290298083011,9.778203456385441,37.091471538561954
0.0078869014391807039,-2.3841528197953026,1.955723021867902,-0.050739482983010689,9.7786151093395102,33.984560042154264
0.007886904276570841,-2.4000072034774189,1.9558055969561299,-0.047803204645709904,9.7790279847806492,31.04593709293772
0.0078869071139609781,-2.4025116582360604,1.9558882564299225,-0.044790487121081704,9.7794412821496124,28.283354807235206
0.0078869099513511134,-2.39241957987009,1.9559708401774303,-0.041728362244027012,9.7798542008871507,25.704565301369623
0.0078869132417041486,-2.3656688109159036,1.9560664911682939,-0.038121229587832914,9.780332455841469,22.936248701155648
0.0078869165320571838,-2.32492168120858,1.9561615432052761,-0.03452710678416944,9.7808077160263807,20.428407577548196
0.007886919822410219,-2.2714076605867328,1.9562558982087026,-0.030963346001983527,9.781279491043513,18.174127921786766
0.0078869231127632559,-2.2063562188889767,1.9563494580989003,-0.027447299410222253,9.7817472904945006,16.166495725110877
0.007886926403116291,-2.1309968259539249,1.9564421247961947,-0.023996319177832487,9.7822106239809727,14.398596978760034
0.0078869296934693262,-2.0465589516201912,1.9565338002209118,-0.020627757473761277,9.7826690011045585,12.863517673973748
0.0078869329838223614,-1.9542720657263901,1.9566243862933783,-0.017358966466955575,9.7831219314668907,11.554343801991527
0.0078869362741753966,-1.8553656381111352,1.9567137849339202,-0.014207298326362389,9.7835689246696003,10.464161354052882
0.0078869395645284317,-1.7510691386130406,1.9568018980628634,-0.01119010522092867,9.7840094903143164,9.586056321397324
0.0078869428548814687,-1.64261203707072,1.9568886276005342,-0.0083247393196014194,9.7844431380026702,8.9131146952643618
0.0078869463818299658,-1.5221225865190775,1.9569801007906211,-0.0054178477212704565,9.7849005039531054,8.4093308349229421
0.0078869499087784629,-1.400122251762284,1.9570698165863289,-0.0027171047218574607,9.7853490829316438,8.1119800301472047
0.0078869534357269601,-1.2773866099694369,1.957157806712942,-0.00022095892386493621,9.7857890335647095,8.0063638954473859
0.007886956962675459,-1.1546912383096331,1.9572441028957468,0.0020721410702046333,9.7862205144787335,8.0777840453337362
0.0078869604896239561,-1.0328117139519692,1.9573287368600287,0.0041637466578487714,9.7866436843001434,8.3115420943164882
0.0078869640165724533,-0.91252361406554305,1.9574117403310731,0.0060554092365649875,9.787058701655365,8.6929396569058888
0.0078869675435209504,-0.79460251581945118,1.9574931450341653,0.0077486802038508051,9.7874657251708257,9.2072783476121778
0.0078869710704694476,-0.6798239963827909,1.9575729826945911,0.0092451109572037407,9.787864913472955,9.8398597809455914
0.0078869745974179447,-0.56896363292465912,1.9576512850376362,0.010546252894121311,9.7882564251881803,10.57598557141638
0.0078869781243664436,-0.46279700261415302,1.957728083788586,0.011653657412101046,9.7886404189429292,11.40095733353478
0.0078869816498958641,-0.36133233675970622,1.9578034137959965,0.012575079848250039,9.789017068979982,12.307897059807912
0.0078869851754252828,-0.26584588109255225,1.9578773874661242,0.013317597276338442,9.7893869373306206,13.269000435435602
0.0078869887009547033,-0.1763772201784094,1.9579500875097342,0.013891374815345525,9.7897504375486708,14.274791328439571
0.007886992226484122,-0.092965938582996177,1.9580215966375913,0.014306577584250531,9.7901079831879567,15.315793606841533
0.0078869957520135425,-0.015651620872030925,1.9580919975604605,0.01457337070203274,9.7904599878023024,16.382531138663197
0.007886999277542963,0.055526148388767987,1.9581613729891072,0.014701919287671374,9.7908068649455355,17.465527791926288
0.0078870028030723818,0.12052778463368213,1.9582298056342957,0.01470238846014571,9.7911490281714784,18.555307434652509
0.0078870063286018022,0.17931370329699325,1.9582973782067914,0.014584943338435005,9.7914868910339568,19.642393934863581
0.0078870098541312227,0.23184431981298276,1.9583641734173591,0.014359749041518502,9.7918208670867948,20.717311160581215
0.0078870133796606415,0.27808004961593236,1.9584302739767638,0.014036970688375467,9.7921513698838183,21.770582979827129
0.0078870177589407519,0.32710994000194549,1.9585114403605162,0.013504253192003785,9.7925572018025804,23.051335175791337
0.0078870221382208641,0.36691708820985197,1.9585919113921855,0.012869164386557233,9.7929595569609269,24.265352255309296
0.0078870265175009745,0.39808355797889661,1.9586717920670438,0.012146223510347984,9.7933589603352189,25.409909376658067
0.0078870308967810849,0.42119141304832447,1.9587511873803631,0.011349949801688117,9.7937559369018157,26.482281698114733
0.007887035276061197,0.43682271715738052,1.9588302023274151,0.010494862498889763,9.7941510116370747,27.479744377956369
0.0078870396553413075,0.44555953404530974,1.9589089419034715,0.0095954808402650485,9.794544709517357,28.399572574460045
0.0078870440346214179,0.44798392745135712,1.9589875111038038,0.0086663240641260825,9.7949375555190183,29.239041445902853
0.00788704841390153,0.44467796111476765,1.959066014923684,0.0077219114087849899,9.7953300746184198,29.995426150561848
0.0078870527931816405,0.43622369877478628,1.9591445583583837,0.0067767621125538885,9.7957227917919187,30.666001846714124
0.0078870571724617509,0.42320320417065804,1.9592232464031749,0.0058453954137448888,9.7961162320158746,31.248043692636749
0.0078870619730474524,0.40389107966876853,1.959309662808864,0.0048397522861618608,9.796548314044319,31.788280044279194
0.0078870667736331539,0.38120856811744935,1.9593964971059812,0.0038862965537684313,9.7969824855299059,32.227051558821586
0.0078870715742188572,0.35569627858606079,1.9594837614519722,0.0029878252706572045,9.7974188072598611,32.571034721507075
0.0078870763748045587,0.32789482014396321,1.9595714680042826,0.0021471354909207291,9.7978573400214124,32.82690601757885
0.0078870811753902603,0.29834480186051693,1.9596596289203569,0.0013670242686516371,9.7982981446017838,33.001341932280077
0.0078870859759759618,0.26758683280508239,1.9597482563576403,0.00065028865794249102,9.7987412817882014,33.101018950853899
0.0078870907765616633,0.23616152204701982,1.9598373624735785,-2.7428711412563755e-07,9.7991868123678927,33.132613558543518
0.0078870955771473666,0.20460947865568957,1.9599269594256166,-0.00058186751242564339,9.7996347971280819,33.102802240592077
0.0078871003777330681,0.17347131170045205,1.9600170593711994,-0.0010916939638994302,9.8000852968559968,33.01826148224275
0.0078871051783187696,0.14328763025066754,1.9601076744677723,-0.0015269565874429375,9.8005383723388615,32.885667768738692
0.0078871102560152638,0.11237985140298243,1.9602040582203668,-0.0019090955685442043,9.8010202911018336,32.695270702547823
0.0078871153337117562,0.08363990089781892,1.9603009558546636,-0.0022130643159847321,9.8015047792733174,32.474110012405966
0.0078871204114082504,0.057101191714657287,1.9603983223324037,-0.0024444420702795858,9.801991611662018,32.227543066148421
0.0078871254891047446,0.032797136832977816,1.9604961126153271,-0.0026088080719438231,9.8024805630766352,31.960927231610516
0.0078871305668012388,0.010761149232260819,1.9605942816651738,-0.0027117415614925297,9.8029714083258686,31.679619876627562
0.0078871356444977312,-0.0089733581080134323,1.9606927844436843,-0.0027588217794407704,9.8034639222184214,31.388978369034874
0.0078871407221942254,-0.026372972208364653,1.9607915759125991,-0.0027556279663036032,9.8039578795629954,31.094360076667773
0.0078871457998907196,-0.041404280089312559,1.9608906110336577,-0.0027077393625960997,9.8044530551682882,30.801122367361561
0.007887150877587212,-0.054033868771376822,1.9609898447686012,-0.0026207352088333247,9.8049492238430052,30.514622608951562
0.0078871559552837062,-0.064228325275077186,1.9610892320791693,-0.00250019474553035,9.8054461603958458,30.240218169273092
0.0078871627780336389,-0.074099776873479309,1.9612230376897177,-0.0022829260257281256,9.8061151884485884,29.888277363107576
0.0078871696007835716,-0.080364014063751044,1.9613568312881027,-0.0020433129240171877,9.8067841564405125,29.577751788913229
0.0078871764235335044,-0.083416346641688746,1.9614905706148702,-0.001787597838564664,9.8074528530743503,29.307364165306943
0.0078871832462834354,-0.083652084403088856,1.9616242134105666,-0.0015220231675376894,9.8081210670528325,29.075837210905615
0.0078871900690333681,-0.081466537143747769,1.9617577174157388,-0.0012528313091033846,9.8087885870786931,28.881893644326144
0.0078871968917833008,-0.077255014659461871,1.9618910403709333,-0.00098626466142887753,9.8094552018546661,28.724256184185428
0.0078872037145332335,-0.071412826746027572,1.9620241400166962,-0.00072856562268130282,9.8101207000834805,28.601647549100367
0.0078872105372831663,-0.064335283199241255,1.9621569740935745,-0.00048597659102778828,9.810784870467872,28.512790457687863
0.007887217360033099,-0.056417693814899347,1.9622895003421144,-0.00026473996463546173,9.8114475017105711,28.456407628564794
0.00788722418278303,-0.048055368388798231,1.9624216765028621,-7.1098141671457893e-05,9.8121083825143103,28.431221780348086
0.0078872317555513556,-0.038258980402363314,1.962567969007974,0.00011103757435208111,9.8128398450398695,28.440110492318667
0.0078872393283196812,-0.029116940462522251,1.9627138255350411,0.000255748494788266,9.8135691276752048,28.470175234716152
0.0078872469010880068,-0.020676853291245315,1.9628592717476945,0.00036614658403909262,9.8142963587384724,28.517940582123657
0.0078872544738563324,-0.012986323610502809,1.9630043333095655,0.00044534380650657068,9.8150216665478265,28.579931109124267
0.007887262046624658,-0.0060929561422650089,1.9631490358842847,0.00049645212659273075,9.8157451794214232,28.652671390301084
0.0078872696193929854,-4.4355608502202881e-05,1.9632934051354838,0.00052258350869958947,9.8164670256774187,28.732686000237212
0.007887277192161311,0.0051118732688153166,1.9634374667267935,0.0005268499172291774,9.8171873336339672,28.816499513515726
0.0078872847649296366,0.0093281257677172713,1.9635812463218452,0.00051236331658348344,9.8179062316092249,28.900636504719749
0.0078872923376979622,0.012556797166233367,1.9637247695842697,0.00048223567116452426,9.8186238479213479,28.981621548432368
0.0078872999104662878,0.014750282742393317,1.9638680621776983,0.00043957894537434428,9.8193403108884905,29.055979219236672
0.0078873098044308886,0.01592630403372336,1.9640549222589039,0.00036380466495996439,9.8202746112945185,29.141958499096429
0.0078873196983954893,0.016120228536427722,1.9642415581423138,0.00028980023065615368,9.8212077907115685,29.209909270714945
